#wave(A)        trans
6800.006790818814	0.0002227169321975154
6802.006792816113	0.00023363545698254585
6804.006794813412	0.00024393051005088082
6806.006796810712	0.00025350295945390013
6808.006798808011	0.0002620410337708355
6810.006800805311	0.00026892645472943765
6812.006802802612	0.00027408886474217904
6814.00680479991	0.0002787650068777724
6816.0068067972115	0.0002828762065208587
6818.006808794509	0.00028712541625127233
6820.00681079181	0.00029198298360298886
6822.006812789109	0.0002978876922798354
6824.006814786408	0.00030527420687625296
6826.00681678371	0.00031438447863417577
6828.006818781008	0.00032582452058679806
6830.006820778308	0.00034083958285564434
6832.006822775607	0.0003595537448220131
6834.006824772906	0.0003790446668306784
6836.006826770207	0.00039943606947615283
6838.006828767506	0.0004203227645294162
6840.006830764806	0.0004417424351079906
6842.006832762107	0.00046333879472877063
6844.006834759404	0.0004839856072616109
6846.0068367567055	0.000503526433611572
6848.006838754004	0.0005224588567913845
6850.006840751304	0.0005407078893864359
6852.006842748605	0.0005587196716732505
6854.006844745903	0.0005778204317338345
6856.006846743204	0.0005981934453257833
6858.006848740502	0.0006200923298968037
6860.006850737802	0.0006442308533094796
6862.006852735102	0.0006706094768751533
6864.006854732401	0.000697162728714025
6866.006856729702	0.0007239226077033066
6868.006858727002	0.0007509956755572292
6870.006860724301	0.0007785462537913822
6872.006862721601	0.0008066158047532261
6874.006864718899	0.0008347095486858505
6876.0068667161995	0.0008628498036894673
6878.0068687135	0.0008914469314428679
6880.006870710799	0.0009207537073349954
6882.006872708099	0.0009509774416653047
6884.006874705397	0.000981674047519101
6886.006876702699	0.0010129273612208972
6888.006878699997	0.0010454957044819767
6890.006880697297	0.0010800201059708442
6892.006882694597	0.0011169637567379825
6894.006884691897	0.0011549657835289411
6896.006886689197	0.0011942147718678295
6898.006888686496	0.001234235830004985
6900.006890683795	0.001275360850692066
6902.0068926810945	0.0013170765573741205
6904.006894678394	0.00135777569169902
6906.006896675695	0.0013972932495311611
6908.006898672994	0.0014354510700646602
6910.006900670294	0.0014715087737025465
6912.006902667594	0.001505243706955263
6914.006904664892	0.0015385946593382664
6916.006906662193	0.0015714997303591818
6918.006908659492	0.001604161159450417
6920.006910656793	0.001636467073960986
6922.006912654092	0.001668623106459145
6924.006914651391	0.0017011271293173142
6926.006916648692	0.0017340425716526923
6928.00691864599	0.0017680236039100483
6930.00692064329	0.0018034425420784862
6932.00692264059	0.0018407847941283686
6934.006924637889	0.0018789861427159138
6936.00692663519	0.0019181957600703393
6938.006928632489	0.0019593717351204794
6940.006930629788	0.0020032090177074407
6942.006932627088	0.002050364657182312
6944.006934624387	0.0020983616390397976
6946.0069366216885	0.002147479055929969
6948.006938618987	0.002197519088311199
6950.006940616287	0.0022490322975790788
6952.006942613587	0.002301478182693565
6954.006944610885	0.0023530556607251583
6956.006946608186	0.0024036231892829124
6958.006948605485	0.0024555232258767884
6960.006950602785	0.002508725063603887
6962.006952600085	0.0025652496043923885
6964.006954597384	0.0026250724433396254
6966.006956594684	0.002688741615614798
6968.006958591983	0.002757182944852367
6970.006960589284	0.0028325631070446394
6972.0069625865835	0.0029143922387795695
6974.006964583882	0.0029963819414357096
6976.0069665811825	0.0030785523997605177
6978.006968578482	0.0031646276499267822
6980.006970575781	0.003255151523302469
6982.006972573081	0.0033529173818799387
6984.00697457038	0.003455521041096748
6986.006976567682	0.0035636756499028755
6988.00697856498	0.00368017016139957
6990.00698056228	0.0038078650661265913
6992.006982559579	0.003948077224886803
6994.006984556878	0.004090851630008308
6996.00698655418	0.004236518359183591
6998.006988551479	0.004389446137829018
7000.006990548778	0.004551309871741732
7002.0069925460775	0.004724845415680321
7004.006994543377	0.004903380030979183
7006.006996540677	0.005087552216218107
7008.006998537976	0.005283616169158681
7010.007000535277	0.005494211814905695
7012.007002532577	0.005723815541568254
7014.007004529875	0.005960624828649894
7016.007006527176	0.006205458829115284
7018.007008524474	0.006465529669633705
7020.007010521775	0.0067448426279233566
7022.007012519074	0.007047273235722955
7024.007014516374	0.007357051049986145
7026.007016513675	0.0076749428448876465
7028.007018510973	0.008012941518484036
7030.007020508273	0.008374939605414128
7032.007022505572	0.00876777563341828
7034.007024502871	0.00917370470629806
7036.007026500173	0.009593945528150228
7038.007028497472	0.010044426354311251
7040.007030494771	0.010531652115828
7042.007032492071	0.011064762471867225
7044.007034489369	0.01161542522797374
7046.007036486671	0.01218413338639801
7048.007038483969	0.012790108190055414
7050.0070404812695	0.013441198292143214
7052.00704247857	0.014147243064671937
7054.007044475868	0.014872987652089956
7056.007046473169	0.01561990379170766
7058.007048470467	0.01641507899809416
7060.007050467767	0.017266839147875232
7062.007052465068	0.01818897492942432
7064.007054462367	0.01913912893632043
7066.007056459667	0.02011909082599685
7068.007058456966	0.02115599462976163
7070.007060454265	0.022262060638846646
7072.007062451566	0.023450140201026398
7074.007064448864	0.024664500520683853
7076.0070664461655	0.025906430418766592
7078.007068443465	0.027213004293950252
7080.007070440764	0.02859400596532754
7082.007072438064	0.030067848827701797
7084.0070744353625	0.03157411773803603
7086.007076432663	0.03311709601545651
7088.007078429962	0.03473138594516213
7090.007080427263	0.036432473682319416
7092.007082424562	0.03823432329770896
7094.007084421861	0.04006466175112662
7096.007086419162	0.04192448204670157
7098.007088416461	0.04385494136528178
7100.00709041376	0.04586532702572436
7102.0070924110605	0.047974652642556924
7104.00709440836	0.05012351010530399
7106.00709640566	0.05231281137302822
7108.007098402959	0.054594191576626115
7110.007100400258	0.056980182394054
7112.007102397558	0.05949372263969332
7114.007104394857	0.06205584029285064
7116.007106392159	0.06467300750528998
7118.007108389457	0.06739902359649975
7120.007110386758	0.07023807691116067
7122.007112384057	0.07320794972431582
7124.007114381356	0.07621706139966236
7126.007116378656	0.0792657107399273
7128.0071183759555	0.08241249116205673
7130.007120373256	0.0856661098460887
7132.007122370555	0.08905232503400787
7134.007124367854	0.09249518324695481
7136.007126365155	0.09599454894596297
7138.007128362453	0.09962836505766526
7140.007130359753	0.10340870505940904
7142.007132357054	0.10736746819638499
7144.007134354352	0.11140037022651318
7146.007136351654	0.11550716890513577
7148.007138348952	0.11979437211765755
7150.007140346252	0.12427457460966265
7152.007142343551	0.12899172233127065
7154.00714434085	0.13375596937536097
7156.007146338152	0.13859939743754957
7158.00714833545	0.14365043807418884
7160.00715033275	0.14893183802140708
7162.00715233005	0.15448705909817934
7164.007154327348	0.16013843031733102
7166.007156324649	0.1658828302877705
7168.007158321949	0.17190014023092562
7170.007160319248	0.1781943186132422
7172.007162316549	0.1848369357288555
7174.007164313847	0.19164630583906359
7176.007166311148	0.1987106108997017
7178.007168308446	0.20613806044054334
7180.007170305747	0.21395217493413737
7182.007172303047	0.22222060327361506
7184.0071743003455	0.23065123864616915
7186.007176297646	0.2392357417350611
7188.007178294945	0.2481314627571406
7190.007180292245	0.2573726368016689
7192.007182289544	0.267014342931432
7194.007184286844	0.2767878878905545
7196.007186284145	0.28668600152519375
7198.007188281444	0.29687225621333735
7200.007190278743	0.307362902991666
7202.007192276043	0.31821651732960643
7204.007194273341	0.329213127074747
7206.007196270643	0.3403430149535279
7208.007198267942	0.3516853012591017
7210.007200265241	0.36328482668205037
7212.007202262541	0.3750707107250007
7214.00720425984	0.38686365517867466
7216.007206257141	0.3986918390974788
7218.007208254439	0.4104898075128822
7220.007210251741	0.4223058614086651
7222.00721224904	0.43411207102258376
7224.007214246339	0.4458212553788708
7226.007216243639	0.45743803239579517
7228.007218240938	0.4687736822646245
7230.007220238238	0.47985552732799236
7232.0072222355375	0.4906166942526169
7234.007224232837	0.5011763605458515
7236.007226230138	0.5115505075154906
7238.007228227436	0.5214921392355212
7240.007230224736	0.5310389275424283
7242.007232222036	0.5402121375503005
7244.007234219334	0.549155818231802
7246.007236216637	0.5578926348772486
7248.007238213935	0.5660533306172432
7250.007240211235	0.573670611213051
7252.007242208534	0.5806217012106389
7254.007244205833	0.5872297213711215
7256.007246203134	0.5935297130682161
7258.0072482004325	0.5992784796183808
7260.007250197733	0.6044136382454876
7262.007252195033	0.608861746250438
7264.007254192331	0.6131215389177574
7266.007256189632	0.6172127716476786
7268.007258186931	0.620929778457499
7270.00726018423	0.6242707583968297
7272.007262181532	0.6271698206367556
7274.00726417883	0.6298895907083889
7276.0072661761305	0.6324502639418025
7278.007268173429	0.634621011379981
7280.007270170729	0.6362356388681945
7282.007272168029	0.6374375256084298
7284.0072741653275	0.6384679189325421
7286.007276162629	0.6393489975789194
7288.007278159928	0.6400147817984176
7290.007280157228	0.6404310616403037
7292.007282154527	0.6405689857572575
7294.007284151826	0.6406578158908873
7296.007286149126	0.6407057694752072
7298.007288146426	0.6406564673118998
7300.007290143726	0.6405194038170072
7302.007292141026	0.6402729168251687
7304.007294138324	0.6399661416015495
7306.007296135625	0.6397419025752746
7308.007298132924	0.6395505247938265
7310.0073001302235	0.6392756564014144
7312.007302127524	0.6389076506844087
7314.007304124823	0.6385242387903259
7316.007306122124	0.6381260736695984
7318.007308119422	0.6377536275179775
7320.007310116722	0.6373794202855809
7322.007312114021	0.6370178316721715
7324.007314111321	0.6366993051788518
7326.007316108622	0.6364191148011787
7328.007318105921	0.6361617863457188
7330.007320103221	0.635954237280542
7332.0073221005205	0.635791733535381
7334.007324097819	0.6356079782643068
7336.007326095119	0.635403861406445
7338.007328092419	0.6352038211945015
7340.007330089719	0.6349860517942179
7342.007332087019	0.6347574429755339
7344.007334084317	0.6338894394372755
7346.007336081619	0.6329602199975278
7348.007338078916	0.6320651084520585
7350.007340076217	0.6312118899649597
7352.007342073517	0.6304029681565372
7354.007344070816	0.6296032150782594
7356.007346068117	0.6293064010283226
7358.0073480654155	0.6292789224896906
7360.007350062715	0.6292630794916122
7362.0073520600145	0.6292641895959624
7364.007354057313	0.6292812725346065
7366.007356054615	0.6293093078562427
7368.007358051914	0.6292837030685106
7370.007360049213	0.629241285818682
7372.007362046514	0.6291699077321369
7374.007364043811	0.6290392465854432
7376.007366041113	0.6288582669299015
7378.007368038412	0.628639415997326
7380.007370035712	0.6283508312372809
7382.007372033012	0.6279959702584149
7384.0073740303105	0.6276661974551007
7386.007376027611	0.6273569839385927
7388.0073780249095	0.6270941599697827
7390.007380022209	0.626875489495041
7392.00738201951	0.6267093302987897
7394.007384016809	0.6262156430971311
7396.007386014109	0.6257368582107794
7398.007388011409	0.6252089262208145
7400.007390008708	0.6246759822992259
7402.007392006008	0.6241300259537723
7404.007394003307	0.623530139573806
7406.007396000608	0.6228835051829074
7408.007397997907	0.6222126475491186
7410.0073999952065	0.6214839434556491
7412.007401992506	0.6207057900001308
7414.0074039898045	0.6200046456998172
7416.007405987106	0.6196363873644574
7418.007407984405	0.6193129835185691
7420.007409981705	0.6190461144563034
7422.007411979004	0.6188446769347096
7424.007413976304	0.6186616417206504
7426.007415973604	0.6184905112959327
7428.007417970903	0.6183239225232521
7430.007419968204	0.6181748569846006
7432.007421965503	0.6180479316185645
7434.007423962802	0.6179182756704363
7436.007425960102	0.617783969995657
7438.007427957401	0.61763322392343
7440.007429954701	0.6174699733458169
7442.007431952001	0.6172880009558409
7444.0074339493	0.6170944367512221
7446.007435946602	0.6168936549456103
7448.007437943899	0.6166903930011555
7450.0074399412	0.6164767629417228
7452.007441938499	0.6158937785346371
7454.007443935798	0.6152989587532827
7456.0074459331	0.6147105201851709
7458.0074479303985	0.6140974786983691
7460.007449927698	0.6134748003059117
7462.007451924997	0.6128336525429205
7464.007453922296	0.6121597552659951
7466.007455919597	0.611460873714392
7468.007457916896	0.6107929200045334
7470.007459914196	0.6101114343600575
7472.007461911497	0.6094532852097381
7474.007463908794	0.6092196910203378
7476.007465906096	0.6090265779168418
7478.007467903394	0.6088778233507416
7480.007469900694	0.6087977989668734
7482.007471897994	0.6087996403898246
7484.0074738952935	0.6087965876798331
7486.007475892594	0.608786398849359
7488.0074778898925	0.6086838732410349
7490.007479887192	0.608538684097358
7492.007481884492	0.6083350061631607
7494.007483881791	0.6080576173978269
7496.007485879092	0.6077223743758601
7498.007487876392	0.6073972220916775
7500.007489873691	0.6070115694397215
7502.007491870991	0.6065741536657289
7504.007493868289	0.6062073208691561
7506.00749586559	0.6058979457649541
7508.007497862889	0.6056247805413133
7510.0074998601895	0.605083260171315
7512.007501857489	0.6041017855783107
7514.0075038547875	0.603091477926915
7516.007505852089	0.6020615196492083
7518.007507849387	0.6009929460841616
7520.007509846687	0.5998822074215169
7522.007511843987	0.5988838467416071
7524.007513841287	0.5986085426306371
7526.007515838587	0.5983187760925501
7528.007517835886	0.5980784898790681
7530.007519833185	0.5978525534475271
7532.007521830485	0.5976545408973376
7534.007523827784	0.597507070311832
7536.007525825085	0.5974042942598988
7538.007527822384	0.5972968116768438
7540.007529819684	0.5972308729336541
7542.007531816984	0.5971990982334306
7544.007533814282	0.5971215696729717
7546.007535811583	0.5970104326010095
7548.007537808882	0.5968605743419951
7550.007539806183	0.5966529475573028
7552.007541803482	0.5963845294291711
7554.007543800781	0.5961219739079264
7556.007545798082	0.5958597879338182
7558.00754779538	0.5956159549107981
7560.00754979268	0.5953875340637412
7562.00755178998	0.5940082618818497
7564.007553787279	0.5926316405420615
7566.00755578458	0.591264334290246
7568.007557781879	0.5899192171489657
7570.007559779178	0.5886573069352685
7572.007561776478	0.5883556422103555
7574.007563773776	0.5880643427156027
7576.007565771079	0.5877871970818768
7578.007567768377	0.5874929630623945
7580.007569765677	0.5871995268629977
7582.007571762977	0.5869037739074789
7584.007573760275	0.5865847265661478
7586.007575757576	0.586243170628712
7588.0075777548755	0.5859000379990653
7590.007579752175	0.5855387873910612
7592.007581749475	0.5851593103312939
7594.007583746774	0.584798373417907
7596.007585744074	0.584454228157344
7598.007587741373	0.5841111354638169
7600.007589738672	0.5837753183844553
7602.007591735974	0.583507935374837
7604.007593733272	0.5832290167425194
7606.007595730573	0.5829442550991123
7608.007597727872	0.5826468043100518
7610.0075997251715	0.5823273829241135
7612.007601722471	0.5819882251644795
7614.0076037197705	0.5816514110348014
7616.007605717072	0.5813196280408462
7618.00760771437	0.581025559751565
7620.00760971167	0.5807494668661752
7622.007611708969	0.5804978972858287
7624.007613706268	0.5802769453433757
7626.007615703569	0.5800819458854739
7628.007617700869	0.5798929129374568
7630.007619698168	0.5797310074065012
7632.007621695468	0.5795966988762064
7634.007623692767	0.5794439263474404
7636.0076256900675	0.5792684009810203
7638.007627687366	0.579018793911648
7640.007629684667	0.578706646614906
7642.007631681967	0.5783321648772473
7644.007633679265	0.5779115237258109
7646.007635676566	0.5774555735403643
7648.007637673864	0.5767133796984902
7650.007639671165	0.5759389685500369
7652.007641668464	0.5751381460872987
7654.007643665764	0.5743843517814851
7656.007645663065	0.5736760745903751
7658.007647660363	0.5730207534518235
7660.007649657663	0.5724368064266676
7662.0076516549625	0.57192562405052
7664.007653652261	0.5714122124001791
7666.007655649563	0.5708982763345836
7668.007657646862	0.5704181806170573
7670.007659644161	0.5702946236549563
7672.007661641461	0.5701754157779888
7674.007663638759	0.5700687082056259
7676.007665636061	0.5699641162196805
7678.007667633359	0.5698145918804023
7680.00766963066	0.5696465203977055
7682.00767162796	0.5694592936745098
7684.007673625258	0.5692245444800572
7686.007675622559	0.5689504162950653
7688.0076776198575	0.5686658062223947
7690.007679617157	0.5683385712854497
7692.007681614457	0.5679667644551861
7694.007683611757	0.5676298015944787
7696.007685609057	0.5673279647587104
7698.007687606356	0.5670616768036136
7700.007689603655	0.5668446880143339
7702.007691600956	0.5665123767262163
7704.007693598254	0.5659888494727149
7706.007695595556	0.5654511517485812
7708.007697592855	0.5648677552838786
7710.0076995901545	0.5642512980202756
7712.007701587454	0.5636013003255246
7714.007703584753	0.5629246422072214
7716.007705582053	0.5622278830161598
7718.007707579352	0.5615474550536433
7720.007709576653	0.5608549216360319
7722.007711573952	0.5601514092426809
7724.007713571251	0.5595016877076009
7726.007715568552	0.559106492386133
7728.007717565851	0.558732629784668
7730.00771956315	0.5583973308289518
7732.007721560451	0.5581086050850053
7734.00772355775	0.5577814755636604
7736.0077255550505	0.5574256639741981
7738.007727552349	0.5570805319715166
7740.0077295496485	0.5567148275421588
7742.007731546948	0.5563202673889484
7744.0077335442475	0.5559685804300372
7746.007735541549	0.5556656392247256
7748.007737538847	0.5554193465825495
7750.007739536148	0.5552396040642806
7752.007741533447	0.5551318801476532
7754.007743530746	0.5550205036005001
7756.007745528046	0.5548917973333592
7758.007747525345	0.5547042179398383
7760.007749522646	0.5544756908714848
7762.0077515199455	0.5542542908961786
7764.007753517244	0.5539917540049303
7766.007755514545	0.5536873346945465
7768.007757511843	0.5533624188244531
7770.007759509143	0.5529910409157192
7772.007761506444	0.5525650057451557
7774.007763503742	0.552165362542009
7776.007765501044	0.5517879299261068
7778.007767498342	0.551418692118066
7780.007769495642	0.5510726609189285
7782.007771492941	0.5507559810361221
7784.00777349024	0.5504220875511134
7786.007775487542	0.5500844352272729
7788.0077774848405	0.5497748667349432
7790.00777948214	0.5494786351138804
7792.00778147944	0.5491934985889741
7794.007783476738	0.5489591967325944
7796.007785474039	0.5486646622131588
7798.007787471339	0.5481262260835035
7800.007789468638	0.5475990612308119
7802.007791465939	0.5470976517576936
7804.007793463237	0.5465245882938932
7806.007795460538	0.5458987623874838
7808.007797457836	0.5452671598873083
7810.007799455136	0.5445921706200659
7812.007801452437	0.5438539050782941
7814.007803449736	0.543187838675758
7816.007805447036	0.542578718918528
7818.007807444335	0.5419875756383985
7820.007809441635	0.5416306948635151
7822.007811438934	0.541402478933766
7824.007813436233	0.5411090033574146
7826.007815433535	0.5407611853316033
7828.007817430834	0.5403859926242838
7830.007819428133	0.5399565073475573
7832.007821425433	0.5394585287738063
7834.007823422731	0.5390073367030016
7836.0078254200325	0.5385955110496032
7838.007827417332	0.5382047495786462
7840.0078294146315	0.5378533284741441
7842.007831411931	0.5375512154502464
7844.00783340923	0.5372163852475518
7846.007835406531	0.5368518070437942
7848.007837403829	0.5364671162762208
7850.007839401131	0.5360511297963277
7852.00784139843	0.5355996036970485
7854.007843395729	0.5351248292859049
7856.007845393029	0.5346398063222243
